# Wavelength	Spectral Flux Density
# (nm)		(W/m^2/nm)
280.000000	0.0
280.500000	0.0
281.000000	0.0
281.500000	0.0
282.000000	0.0
282.500000	0.0
283.000000	0.0
283.500000	0.0
284.000000	0.0
284.500000	0.0
285.000000	3.1341e-17
285.500000	2.5547e-16
286.000000	9.4865e-16
286.500000	7.4169e-15
287.000000	2.9107e-14
287.500000	1.4693e-13
288.000000	1.1259e-12
288.500000	3.7083e-12
289.000000	1.4309e-11
289.500000	6.2866e-11
290.000000	2.1048e-10
290.500000	5.4419e-10
291.000000	1.594e-09
291.500000	5.9009e-09
292.000000	1.6686e-08
292.500000	2.8804e-08
293.000000	6.447e-08
293.500000	1.9265e-07
294.000000	3.8681e-07
294.500000	6.5308e-07
295.000000	1.3191e-06
295.500000	3.338e-06
296.000000	6.1332e-06
296.500000	9.702e-06
297.000000	1.3812e-05
297.500000	2.8264e-05
298.000000	4.6308e-05
298.500000	5.9389e-05
299.000000	8.458e-05
299.500000	0.00015559
300.000000	0.00018991
300.500000	0.00023808
301.000000	0.00038258
301.500000	0.0005494
302.000000	0.000616
302.500000	0.00092632
303.000000	0.0015783
303.500000	0.0020312
304.000000	0.0021551
304.500000	0.0027344
305.000000	0.003777
305.500000	0.0043065
306.000000	0.0042913
306.500000	0.0048908
307.000000	0.0064458
307.500000	0.0082308
308.000000	0.0087741
308.500000	0.0096184
309.000000	0.0094273
309.500000	0.010189
310.000000	0.011977
310.500000	0.015443
311.000000	0.019537
311.500000	0.019866
312.000000	0.021907
312.500000	0.023141
313.000000	0.025103
313.500000	0.025394
314.000000	0.028091
314.500000	0.030333
315.000000	0.031715
315.500000	0.027905
316.000000	0.028875
316.500000	0.03554
317.000000	0.040755
317.500000	0.043687
318.000000	0.041979
318.500000	0.043835
319.000000	0.048067
319.500000	0.046849
320.000000	0.049408
320.500000	0.058293
321.000000	0.05877
321.500000	0.056155
322.000000	0.053451
322.500000	0.052444
323.000000	0.050924
323.500000	0.058678
324.000000	0.066219
324.500000	0.068961
325.000000	0.069126
325.500000	0.07997
326.000000	0.093042
326.500000	0.098812
327.000000	0.097349
327.500000	0.094902
328.000000	0.08816
328.500000	0.092182
329.000000	0.10387
329.500000	0.11532
330.000000	0.11678
330.500000	0.10747
331.000000	0.10181
331.500000	0.1072
332.000000	0.11116
332.500000	0.11183
333.000000	0.11005
333.500000	0.10552
334.000000	0.10805
334.500000	0.11536
335.000000	0.12009
335.500000	0.11745
336.000000	0.10801
336.500000	0.10023
337.000000	0.098728
337.500000	0.10629
338.000000	0.11485
338.500000	0.12042
339.000000	0.12499
339.500000	0.12845
340.000000	0.13681
340.500000	0.13688
341.000000	0.12884
341.500000	0.12848
342.000000	0.13433
342.500000	0.13975
343.000000	0.14234
343.500000	0.1349
344.000000	0.11694
344.500000	0.11273
345.000000	0.12848
345.500000	0.13728
346.000000	0.13438
346.500000	0.13722
347.000000	0.1422
347.500000	0.13766
348.000000	0.13745
348.500000	0.14016
349.000000	0.13538
349.500000	0.1394
350.000000	0.15437
350.500000	0.16749
351.000000	0.16339
351.500000	0.15766
352.000000	0.15428
352.500000	0.14616
353.000000	0.15571
353.500000	0.17165
354.000000	0.1819
354.500000	0.18436
355.000000	0.18663
355.500000	0.18068
356.000000	0.16994
356.500000	0.15977
357.000000	0.14084
357.500000	0.14286
358.000000	0.13326
358.500000	0.12401
359.000000	0.1462
359.500000	0.17655
360.000000	0.18718
360.500000	0.17729
361.000000	0.16351
361.500000	0.1605
362.000000	0.16862
362.500000	0.1851
363.000000	0.19082
363.500000	0.18901
364.000000	0.19633
364.500000	0.19491
365.000000	0.20282
365.500000	0.22368
366.000000	0.24017
366.500000	0.24107
367.000000	0.23707
367.500000	0.23305
368.000000	0.21985
368.500000	0.21881
369.000000	0.22919
369.500000	0.24671
370.000000	0.25064
370.500000	0.22702
371.000000	0.23105
371.500000	0.24055
372.000000	0.22912
372.500000	0.21869
373.000000	0.21103
373.500000	0.19058
374.000000	0.19042
374.500000	0.18936
375.000000	0.20243
375.500000	0.22424
376.000000	0.23263
376.500000	0.22928
377.000000	0.24641
377.500000	0.27536
378.000000	0.29715
378.500000	0.29015
379.000000	0.25923
379.500000	0.23281
380.000000	0.24511
380.500000	0.26734
381.000000	0.27249
381.500000	0.24601
382.000000	0.21008
382.500000	0.18205
383.000000	0.16346
383.500000	0.15851
384.000000	0.18369
384.500000	0.2215
385.000000	0.24352
385.500000	0.23306
386.000000	0.22523
386.500000	0.23456
387.000000	0.23704
387.500000	0.23397
388.000000	0.23207
388.500000	0.23079
389.000000	0.25095
389.500000	0.28304
390.000000	0.29738
390.500000	0.30034
391.000000	0.31863
391.500000	0.32363
392.000000	0.2984
392.500000	0.24908
393.000000	0.18061
393.500000	0.14383
394.000000	0.18711
394.500000	0.25849
395.000000	0.30572
395.500000	0.3261
396.000000	0.28714
396.500000	0.20909
397.000000	0.16219
397.500000	0.23987
398.000000	0.3253
398.500000	0.39088
399.000000	0.41562
399.500000	0.42892
400.000000	0.43413
401.000000	0.45327
402.000000	0.47237
403.000000	0.45596
404.000000	0.46442
405.000000	0.45408
406.000000	0.4439
407.000000	0.43701
408.000000	0.46469
409.000000	0.4974
410.000000	0.4249
411.000000	0.47879
412.000000	0.50999
413.000000	0.49029
414.000000	0.48598
415.000000	0.5041
416.000000	0.52024
417.000000	0.51423
418.000000	0.49289
419.000000	0.51403
420.000000	0.47196
421.000000	0.53706
422.000000	0.53081
423.000000	0.51498
424.000000	0.51311
425.000000	0.52981
426.000000	0.5157
427.000000	0.507
428.000000	0.51282
429.000000	0.47565
430.000000	0.38009
431.000000	0.34565
432.000000	0.57599
433.000000	0.5368
434.000000	0.49671
435.000000	0.54574
436.000000	0.59945
437.000000	0.62234
438.000000	0.54697
439.000000	0.52707
440.000000	0.60511
441.000000	0.60144
442.000000	0.64469
443.000000	0.65483
444.000000	0.63899
445.000000	0.66419
446.000000	0.59629
447.000000	0.68521
448.000000	0.69443
449.000000	0.69371
450.000000	0.72009
451.000000	0.74777
452.000000	0.7168
453.000000	0.66268
454.000000	0.71165
455.000000	0.70746
456.000000	0.73167
457.000000	0.73865
458.000000	0.73501
459.000000	0.73007
460.000000	0.72621
461.000000	0.75256
462.000000	0.76034
463.000000	0.76374
464.000000	0.7412
465.000000	0.73269
466.000000	0.74887
467.000000	0.71628
468.000000	0.75971
469.000000	0.76454
470.000000	0.73579
471.000000	0.75043
472.000000	0.7901
473.000000	0.7602
474.000000	0.76945
475.000000	0.79554
476.000000	0.76916
477.000000	0.77454
478.000000	0.8004
479.000000	0.7953
480.000000	0.80929
481.000000	0.80994
482.000000	0.81362
483.000000	0.80443
484.000000	0.7898
485.000000	0.78775
486.000000	0.63912
487.000000	0.72351
488.000000	0.78365
489.000000	0.73871
490.000000	0.83011
491.000000	0.79843
492.000000	0.76176
493.000000	0.81531
494.000000	0.79647
495.000000	0.84615
496.000000	0.80515
497.000000	0.81941
498.000000	0.7976
499.000000	0.79807
500.000000	0.79582
501.000000	0.77199
502.000000	0.78365
503.000000	0.82021
504.000000	0.76501
505.000000	0.82027
506.000000	0.85375
507.000000	0.81725
508.000000	0.79686
509.000000	0.83547
510.000000	0.81417
511.000000	0.82962
512.000000	0.85206
513.000000	0.81272
514.000000	0.79595
515.000000	0.81933
516.000000	0.82723
517.000000	0.67438
518.000000	0.77158
519.000000	0.74814
520.000000	0.81713
521.000000	0.82343
522.000000	0.84228
523.000000	0.79429
524.000000	0.85465
525.000000	0.8607
526.000000	0.8371
527.000000	0.73252
528.000000	0.8389
529.000000	0.87828
530.000000	0.84449
531.000000	0.89107
532.000000	0.87529
533.000000	0.78189
534.000000	0.83785
535.000000	0.85089
536.000000	0.88759
537.000000	0.82157
538.000000	0.87533
539.000000	0.85403
540.000000	0.82493
541.000000	0.79337
542.000000	0.86386
543.000000	0.84994
544.000000	0.88005
545.000000	0.86027
546.000000	0.85265
547.000000	0.86405
548.000000	0.84922
549.000000	0.87604
550.000000	0.87182
551.000000	0.87125
552.000000	0.88939
553.000000	0.86448
554.000000	0.88166
555.000000	0.88684
556.000000	0.87717
557.000000	0.85597
558.000000	0.87473
559.000000	0.82795
560.000000	0.84292
561.000000	0.89221
562.000000	0.8498
563.000000	0.88925
564.000000	0.87208
565.000000	0.87785
566.000000	0.83044
567.000000	0.88549
568.000000	0.87778
569.000000	0.85667
570.000000	0.85745
571.000000	0.8296
572.000000	0.87649
573.000000	0.88044
574.000000	0.87604
575.000000	0.85648
576.000000	0.86097
577.000000	0.88289
578.000000	0.85585
579.000000	0.86832
580.000000	0.88309
581.000000	0.88722
582.000000	0.90107
583.000000	0.91046
584.000000	0.90868
585.000000	0.9016
586.000000	0.88007
587.000000	0.89969
588.000000	0.87967
589.000000	0.77024
590.000000	0.81905
591.000000	0.87591
592.000000	0.85789
593.000000	0.87026
594.000000	0.86647
595.000000	0.85589
596.000000	0.88183
597.000000	0.88469
598.000000	0.87398
599.000000	0.87418
600.000000	0.88302
601.000000	0.87272
602.000000	0.85975
603.000000	0.88948
604.000000	0.90525
605.000000	0.90383
606.000000	0.89945
607.000000	0.90491
608.000000	0.90208
609.000000	0.89534
610.000000	0.89164
611.000000	0.88713
612.000000	0.9006
613.000000	0.88794
614.000000	0.86106
615.000000	0.89279
616.000000	0.86934
617.000000	0.86925
618.000000	0.90227
619.000000	0.90663
620.000000	0.90711
621.000000	0.9112
622.000000	0.87866
623.000000	0.87259
624.000000	0.86973
625.000000	0.864
626.000000	0.86318
627.000000	0.88821
628.000000	0.84088
629.000000	0.87021
630.000000	0.85868
631.000000	0.88376
632.000000	0.85117
633.000000	0.90524
634.000000	0.89122
635.000000	0.90213
636.000000	0.88162
637.000000	0.91173
638.000000	0.9178
639.000000	0.91408
640.000000	0.89502
641.000000	0.89557
642.000000	0.9051
643.000000	0.9145
644.000000	0.9106
645.000000	0.91729
646.000000	0.89427
647.000000	0.89057
648.000000	0.88225
649.000000	0.85493
650.000000	0.86193
651.000000	0.91603
652.000000	0.88008
653.000000	0.90755
654.000000	0.89753
655.000000	0.85639
656.000000	0.75176
657.000000	0.79045
658.000000	0.8836
659.000000	0.88685
660.000000	0.89262
661.000000	0.89213
662.000000	0.88506
663.000000	0.88655
664.000000	0.89419
665.000000	0.91002
666.000000	0.90925
667.000000	0.90267
668.000000	0.90571
669.000000	0.92141
670.000000	0.90875
671.000000	0.90705
672.000000	0.89447
673.000000	0.90217
674.000000	0.9009
675.000000	0.89362
676.000000	0.90401
677.000000	0.90603
678.000000	0.91089
679.000000	0.90317
680.000000	0.90467
681.000000	0.90117
682.000000	0.90553
683.000000	0.8958
684.000000	0.89001
685.000000	0.89065
686.000000	0.87063
687.000000	0.63137
688.000000	0.7291
689.000000	0.73375
690.000000	0.76851
691.000000	0.80104
692.000000	0.83273
693.000000	0.82766
694.000000	0.81841
695.000000	0.83432
696.000000	0.83251
697.000000	0.87864
698.000000	0.8649
699.000000	0.84755
700.000000	0.8414
701.000000	0.83077
702.000000	0.83157
703.000000	0.83641
704.000000	0.85789
705.000000	0.86693
706.000000	0.8623
707.000000	0.85868
708.000000	0.86536
709.000000	0.86835
710.000000	0.87376
711.000000	0.8723
712.000000	0.8666
713.000000	0.85659
714.000000	0.86419
715.000000	0.83531
716.000000	0.84409
717.000000	0.73686
718.000000	0.68615
719.000000	0.61599
720.000000	0.6574
721.000000	0.72339
722.000000	0.82457
723.000000	0.76186
724.000000	0.70393
725.000000	0.69981
726.000000	0.72859
727.000000	0.73118
728.000000	0.70148
729.000000	0.70544
730.000000	0.76037
731.000000	0.72168
732.000000	0.77706
733.000000	0.8052
734.000000	0.8318
735.000000	0.81998
736.000000	0.81207
737.000000	0.81089
738.000000	0.82611
739.000000	0.80181
740.000000	0.82131
741.000000	0.81828
742.000000	0.82714
743.000000	0.84445
744.000000	0.85131
745.000000	0.85101
746.000000	0.8493
747.000000	0.8499
748.000000	0.84497
749.000000	0.84547
750.000000	0.8445
751.000000	0.84083
752.000000	0.8439
753.000000	0.83978
754.000000	0.85049
755.000000	0.8481
756.000000	0.83791
757.000000	0.83723
758.000000	0.84248
759.000000	0.82395
760.000000	0.18629
761.000000	0.10799
762.000000	0.47853
763.000000	0.26543
764.000000	0.37598
765.000000	0.47767
766.000000	0.56588
767.000000	0.67512
768.000000	0.77043
769.000000	0.77986
770.000000	0.80239
771.000000	0.80767
772.000000	0.81415
773.000000	0.81377
774.000000	0.814
775.000000	0.81407
776.000000	0.81603
777.000000	0.81909
778.000000	0.81833
779.000000	0.82206
780.000000	0.81323
781.000000	0.81133
782.000000	0.81529
783.000000	0.81209
784.000000	0.80677
785.000000	0.81034
786.000000	0.81088
787.000000	0.80129
788.000000	0.79132
789.000000	0.78828
790.000000	0.76438
791.000000	0.77458
792.000000	0.76735
793.000000	0.7621
794.000000	0.76864
795.000000	0.77321
796.000000	0.76034
797.000000	0.77252
798.000000	0.78696
799.000000	0.77183
800.000000	0.75937
801.000000	0.76797
802.000000	0.76898
803.000000	0.75785
804.000000	0.76682
805.000000	0.75
806.000000	0.78045
807.000000	0.77243
808.000000	0.76984
809.000000	0.75064
810.000000	0.75168
811.000000	0.75002
812.000000	0.73158
813.000000	0.72274
814.000000	0.64867
815.000000	0.64283
816.000000	0.59821
817.000000	0.61226
818.000000	0.59145
819.000000	0.64994
820.000000	0.61936
821.000000	0.71542
822.000000	0.68278
823.000000	0.48507
824.000000	0.67145
825.000000	0.69574
826.000000	0.67076
827.000000	0.70679
828.000000	0.61138
829.000000	0.6677
830.000000	0.65836
831.000000	0.66406
832.000000	0.6488
833.000000	0.69308
834.000000	0.67733
835.000000	0.72667
836.000000	0.70491
837.000000	0.73117
838.000000	0.72407
839.000000	0.72562
840.000000	0.73611
841.000000	0.73221
842.000000	0.72271
843.000000	0.72865
844.000000	0.71507
845.000000	0.7369
846.000000	0.73863
847.000000	0.71908
848.000000	0.71957
849.000000	0.71517
850.000000	0.64833
851.000000	0.7074
852.000000	0.70945
853.000000	0.70628
854.000000	0.62314
855.000000	0.66847
856.000000	0.71261
857.000000	0.72615
858.000000	0.72643
859.000000	0.72632
860.000000	0.72382
861.000000	0.72291
862.000000	0.72858
863.000000	0.73305
864.000000	0.71745
865.000000	0.70586
866.000000	0.62601
867.000000	0.67508
868.000000	0.70741
869.000000	0.70037
870.000000	0.71371
871.000000	0.70531
872.000000	0.71498
873.000000	0.70792
874.000000	0.69561
875.000000	0.68569
876.000000	0.70495
877.000000	0.70752
878.000000	0.7048
879.000000	0.69317
880.000000	0.69547
881.000000	0.67264
882.000000	0.69033
883.000000	0.688
884.000000	0.6909
885.000000	0.69928
886.000000	0.67225
887.000000	0.67451
888.000000	0.68326
889.000000	0.69235
890.000000	0.68469
891.000000	0.6861
892.000000	0.67905
893.000000	0.65278
894.000000	0.63722
895.000000	0.60948
896.000000	0.57184
897.000000	0.49999
898.000000	0.53872
899.000000	0.41293
900.000000	0.55711
901.000000	0.45065
902.000000	0.50151
903.000000	0.51742
904.000000	0.6328
905.000000	0.61254
906.000000	0.58177
907.000000	0.48011
908.000000	0.4902
909.000000	0.52889
910.000000	0.46984
911.000000	0.50215
912.000000	0.51762
913.000000	0.47608
914.000000	0.47474
915.000000	0.51361
916.000000	0.43723
917.000000	0.55241
918.000000	0.44946
919.000000	0.55896
920.000000	0.56297
921.000000	0.59002
922.000000	0.53005
923.000000	0.5633
924.000000	0.54611
925.000000	0.53843
926.000000	0.5324
927.000000	0.59552
928.000000	0.44744
929.000000	0.41858
930.000000	0.32877
931.000000	0.31148
932.000000	0.22942
933.000000	0.1896
934.000000	0.11079
935.000000	0.19293
936.000000	0.12434
937.000000	0.12585
938.000000	0.15443
939.000000	0.30614
940.000000	0.36169
941.000000	0.28562
942.000000	0.31104
943.000000	0.2141
944.000000	0.21978
945.000000	0.28283
946.000000	0.14992
947.000000	0.28512
948.000000	0.21102
949.000000	0.37881
950.000000	0.11356
951.000000	0.37107
952.000000	0.20701
953.000000	0.26421
954.000000	0.32566
955.000000	0.26421
956.000000	0.2543
957.000000	0.20996
958.000000	0.3565
959.000000	0.28956
960.000000	0.32559
961.000000	0.35673
962.000000	0.34182
963.000000	0.3904
964.000000	0.35477
965.000000	0.38945
966.000000	0.38869
967.000000	0.3885
968.000000	0.50293
969.000000	0.52901
970.000000	0.4897
971.000000	0.55017
972.000000	0.53023
973.000000	0.46831
974.000000	0.44443
975.000000	0.45563
976.000000	0.44198
977.000000	0.49295
978.000000	0.47848
979.000000	0.49619
980.000000	0.47053
981.000000	0.55413
982.000000	0.53797
983.000000	0.51989
984.000000	0.57257
985.000000	0.53492
986.000000	0.58301
987.000000	0.57422
988.000000	0.57066
989.000000	0.58167
990.000000	0.56888
991.000000	0.58532
992.000000	0.58337
993.000000	0.57286
994.000000	0.5858
995.000000	0.584
996.000000	0.58182
997.000000	0.57476
998.000000	0.57415
999.000000	0.57394
1000.000000	0.57149
1001.000000	0.58261
1002.000000	0.57
1003.000000	0.5749
1004.000000	0.56633
1005.000000	0.53374
1006.000000	0.55793
1007.000000	0.56971
1008.000000	0.56925
1009.000000	0.56371
1010.000000	0.56332
1011.000000	0.56614
1012.000000	0.56309
1013.000000	0.56217
1014.000000	0.5646
1015.000000	0.55484
1016.000000	0.55734
1017.000000	0.55119
1018.000000	0.55973
1019.000000	0.5399
1020.000000	0.54788
1021.000000	0.55011
1022.000000	0.54073
1023.000000	0.54497
1024.000000	0.54519
1025.000000	0.55063
1026.000000	0.54978
1027.000000	0.54721
1028.000000	0.54788
1029.000000	0.54192
1030.000000	0.54532
1031.000000	0.54286
1032.000000	0.5433
1033.000000	0.53408
1034.000000	0.53731
1035.000000	0.53908
1036.000000	0.53887
1037.000000	0.53335
1038.000000	0.53081
1039.000000	0.53451
1040.000000	0.53086
1041.000000	0.53096
1042.000000	0.53119
1043.000000	0.52589
1044.000000	0.52835
1045.000000	0.52538
1046.000000	0.51169
1047.000000	0.51948
1048.000000	0.52748
1049.000000	0.52451
1050.000000	0.5211
1051.000000	0.52161
1052.000000	0.51845
1053.000000	0.51689
1054.000000	0.51474
1055.000000	0.51638
1056.000000	0.5148
1057.000000	0.51358
1058.000000	0.50832
1059.000000	0.49286
1060.000000	0.50652
1061.000000	0.4949
1062.000000	0.50407
1063.000000	0.49592
1064.000000	0.50356
1065.000000	0.50136
1066.000000	0.49183
1067.000000	0.49442
1068.000000	0.49377
1069.000000	0.46736
1070.000000	0.48211
1071.000000	0.49161
1072.000000	0.49372
1073.000000	0.48432
1074.000000	0.49869
1075.000000	0.47556
1076.000000	0.49327
1077.000000	0.48507
1078.000000	0.48423
1079.000000	0.48537
1080.000000	0.47951
1081.000000	0.46639
1082.000000	0.47318
1083.000000	0.48022
1084.000000	0.46471
1085.000000	0.47649
1086.000000	0.44538
1087.000000	0.45546
1088.000000	0.47645
1089.000000	0.4654
1090.000000	0.44673
1091.000000	0.47274
1092.000000	0.46703
1093.000000	0.41077
1094.000000	0.4337
1095.000000	0.4188
1096.000000	0.40495
1097.000000	0.46776
1098.000000	0.40719
1099.000000	0.41105
1100.000000	0.39357
1101.000000	0.40258
1102.000000	0.37992
1103.000000	0.37802
1104.000000	0.37905
1105.000000	0.41023
1106.000000	0.32296
1107.000000	0.39146
1108.000000	0.33727
1109.000000	0.33499
1110.000000	0.38831
1111.000000	0.26946
1112.000000	0.33568
1113.000000	0.21849
1114.000000	0.24389
1115.000000	0.20341
1116.000000	0.16407
1117.000000	0.065005
1118.000000	0.17721
1119.000000	0.092356
1120.000000	0.11575
1121.000000	0.15152
1122.000000	0.066708
1123.000000	0.10519
1124.000000	0.089246
1125.000000	0.11841
1126.000000	0.042399
1127.000000	0.12903
1128.000000	0.0815
1129.000000	0.08698
1130.000000	0.057999
1131.000000	0.24207
1132.000000	0.19193
1133.000000	0.12585
1134.000000	0.034325
1135.000000	0.01272
1136.000000	0.10575
1137.000000	0.23581
1138.000000	0.16677
1139.000000	0.2445
1140.000000	0.20985
1141.000000	0.15868
1142.000000	0.18439
1143.000000	0.25544
1144.000000	0.093074
1145.000000	0.11997
1146.000000	0.12949
1147.000000	0.048683
1148.000000	0.2223
1149.000000	0.18034
1150.000000	0.10054
1151.000000	0.16791
1152.000000	0.20427
1153.000000	0.19647
1154.000000	0.11776
1155.000000	0.2581
1156.000000	0.23164
1157.000000	0.25929
1158.000000	0.25696
1159.000000	0.27761
1160.000000	0.23625
1161.000000	0.28628
1162.000000	0.28839
1163.000000	0.38534
1164.000000	0.33086
1165.000000	0.32005
1166.000000	0.30884
1167.000000	0.33753
1168.000000	0.34541
1169.000000	0.34826
1170.000000	0.37746
1171.000000	0.36899
1172.000000	0.37434
1173.000000	0.37565
1174.000000	0.27787
1175.000000	0.37437
1176.000000	0.39437
1177.000000	0.39084
1178.000000	0.29843
1179.000000	0.40016
1180.000000	0.36491
1181.000000	0.37681
1182.000000	0.26816
1183.000000	0.36318
1184.000000	0.34782
1185.000000	0.33763
1186.000000	0.39499
1187.000000	0.37742
1188.000000	0.27802
1189.000000	0.34437
1190.000000	0.38289
1191.000000	0.37
1192.000000	0.39198
1193.000000	0.37635
1194.000000	0.38833
1195.000000	0.37028
1196.000000	0.35741
1197.000000	0.39507
